# Time (s), Altitude AGL (m), Speed - Velocity Magnitude (m/s), ω1 (rad/s), ω2 (rad/s), ω3 (rad/s), Ax (m/s²), Ay (m/s²), Az (m/s²)
0.000000,0.000000,0.000000,0.000000,0.000000,0.000000,0.000000,6.205237,70.926179
0.005749,0.002345,0.409380,0.000000,0.000000,0.000000,0.000000,6.205970,70.934565
0.011499,0.007034,0.818809,0.000000,0.000000,-0.000000,-0.000000,6.206701,70.942914
0.022997,0.021104,1.637761,0.000000,-0.000000,0.000000,-0.000000,6.208152,70.959503
0.034496,0.044556,2.456905,0.000000,-0.000000,0.000000,0.000000,6.209588,70.975915
0.045994,0.077392,3.276237,0.000000,0.000000,0.000000,-0.000000,6.211014,70.992219
0.160980,0.922498,11.479256,-0.000000,0.000000,-0.000000,0.000000,6.224293,71.143994
0.275965,2.708186,19.698734,0.000000,-0.000000,0.000000,-0.000000,6.235964,71.277389
0.329044,3.850284,23.497934,-0.000000,0.000000,-0.000000,0.000000,6.240826,71.332971
0.334787,3.987054,23.909187,-0.000071,0.000005,0.000000,0.004772,7.086540,71.270739
0.340529,4.126175,24.320475,-0.000145,0.000012,0.000000,0.004808,7.086796,71.276562
0.352014,4.409119,25.143120,-0.000298,0.000029,-0.000000,0.004833,7.087323,71.287968
0.363499,4.701465,25.965898,-0.000461,0.000052,-0.000000,0.004765,7.087939,71.299352
0.374983,5.003216,26.788807,-0.000634,0.000082,0.000000,0.004599,7.088607,71.310170
0.440003,6.888941,31.449994,-0.001820,0.000394,0.000000,0.001718,7.094680,71.368892
0.505023,9.076383,36.114854,-0.003377,0.000996,0.000000,-0.004792,7.106327,71.421236
0.570042,11.565761,40.783018,-0.005315,0.001939,-0.000000,-0.015261,7.126333,71.466881
0.635062,14.357267,45.454091,-0.007618,0.003258,-0.000000,-0.029858,7.157772,71.505478
0.676165,16.277888,48.408276,-0.009237,0.004294,0.000000,-0.041202,7.185077,71.526426
0.717268,18.319348,51.363370,-0.010958,0.005481,0.000000,-0.054102,7.218940,71.543744
0.758371,20.481676,54.319273,-0.012748,0.006811,-0.000000,-0.068441,7.260194,71.558538
0.831243,24.612517,59.561618,-0.015977,0.009466,-0.000000,-0.096854,7.352988,71.576368
0.904116,29.123459,64.805628,-0.019018,0.012361,-0.000000,-0.127713,7.473089,71.583672
0.976989,34.014536,70.050737,-0.021529,0.015266,-0.000000,-0.158912,7.620532,71.580033
1.049861,39.285728,75.296361,-0.023121,0.017870,-0.000000,-0.187735,7.792565,71.565956
1.084016,41.887073,77.754928,-0.023438,0.018884,-0.000000,-0.199525,7.879992,71.555987
1.118170,44.571889,80.213419,-0.023436,0.019714,-0.000000,-0.209763,7.970435,71.543386
1.152325,47.340162,82.671767,-0.023084,0.020323,-0.000000,-0.218122,8.062831,71.528807
1.215021,52.638933,87.183903,-0.021480,0.020759,-0.000000,-0.227637,8.233337,71.496794
1.277717,58.218740,91.694938,-0.018594,0.020151,-0.000000,-0.228089,8.396348,71.458780
1.340413,64.079436,96.204470,-0.014547,0.018422,-0.000000,-0.218507,8.541642,71.415565
1.403109,70.220850,100.712092,-0.009626,0.015616,-0.000000,-0.198802,8.658942,71.368862
1.428597,72.797794,102.543980,-0.007474,0.014205,-0.000000,-0.188083,8.696433,71.348972
1.454086,75.421089,104.375462,-0.005292,0.012669,-0.000000,-0.175981,8.727359,71.328864
1.479574,78.090725,106.206516,-0.003121,0.011032,-0.000000,-0.162667,8.751392,71.308707
1.506956,81.010262,108.173059,-0.000852,0.009198,-0.000000,-0.147250,8.769148,71.285880
1.534337,83.983246,110.139027,0.001294,0.007326,-0.000000,-0.130953,8.778573,71.262753
1.561719,87.009659,112.104389,0.003262,0.005460,-0.000000,-0.114106,8.779776,71.239427
1.582034,89.289534,113.562127,0.004573,0.004108,-0.000000,-0.101451,8.775531,71.222131
1.602349,91.598802,115.019505,0.005733,0.002806,-0.000000,-0.088847,8.767119,71.204496
1.622664,93.937455,116.476502,0.006721,0.001576,-0.000000,-0.076465,8.754753,71.186010
1.663955,98.781457,119.436704,0.008137,-0.000586,-0.000000,-0.055264,8.717040,71.147874
1.705247,103.746762,122.395141,0.008669,-0.002029,-0.000000,-0.037672,8.668128,71.108518
1.746538,108.833306,125.351692,0.008275,-0.002531,-0.000000,-0.023126,8.613887,71.065751
1.787830,114.041016,128.306205,0.006963,-0.002043,-0.000000,-0.011559,8.560689,71.020067
1.802509,115.921624,129.356071,0.006289,-0.001630,-0.000000,-0.008125,8.543291,71.003100
1.817189,117.817533,130.405661,0.005516,-0.001097,-0.000000,-0.005016,8.527122,70.985545
1.831869,119.728740,131.454968,0.004652,-0.000449,-0.000000,-0.002211,8.512470,70.967474
1.878319,125.876881,134.773224,0.001423,0.002281,-0.000000,0.005006,8.478585,70.905240
1.924768,132.178002,138.088368,-0.002269,0.005804,-0.000000,0.010591,8.469566,70.837160
1.971218,138.631956,141.400232,-0.005992,0.009718,-0.000000,0.015871,8.489638,70.761253
2.017667,145.238581,144.708609,-0.009279,0.013541,-0.000000,0.022315,8.540032,70.678237
2.048724,149.740893,146.918585,-0.010998,0.015782,-0.000000,0.028009,8.589265,70.619137
2.079780,154.311317,149.126865,-0.012212,0.017617,-0.000000,0.035203,8.648702,70.556226
2.110837,158.949793,151.333379,-0.012839,0.018927,-0.000000,0.044171,8.715844,70.490681
2.154714,165.618930,154.447655,-0.012650,0.019733,-0.000000,0.060147,8.818276,70.394495
2.198591,172.423583,157.558127,-0.011182,0.019173,0.000000,0.080091,8.918978,70.293341
2.242467,179.363563,160.664593,-0.008625,0.017316,0.000000,0.103520,9.007515,70.189504
2.280623,185.508540,163.362657,-0.005787,0.014843,0.000000,0.125942,9.067254,70.098658
2.309608,190.244703,165.410047,-0.003432,0.012585,0.000000,0.143707,9.098536,70.029316
2.338593,195.039698,167.455514,-0.001074,0.010161,0.000000,0.161588,9.116101,69.959213
2.367577,199.893467,169.498995,0.001127,0.007734,0.000000,0.179112,9.119564,69.888338
2.396562,204.805950,171.540435,0.003021,0.005474,0.000000,0.195804,9.109573,69.817466
2.437297,211.809060,174.405933,0.004914,0.002878,0.000000,0.217063,9.075862,69.717889
2.478032,218.927854,177.267192,0.005675,0.001289,0.000000,0.234948,9.025479,69.616883
2.510255,224.640890,179.527432,0.005400,0.000909,0.000000,0.246417,8.980354,69.533520
2.542477,230.426123,181.784817,0.004387,0.001336,0.000000,0.255583,8.936722,69.447594
2.574700,236.283464,184.039257,0.002753,0.002514,0.000000,0.262756,8.899901,69.358176
2.606923,242.212818,186.290645,0.000677,0.004308,0.000000,0.268439,8.874420,69.263617
2.639146,248.214089,188.538877,-0.001612,0.006518,0.000000,0.273297,8.863859,69.164431
2.680043,255.934468,191.387679,-0.004427,0.009534,0.000000,0.279481,8.874644,69.030896
2.720941,263.770310,194.231039,-0.006667,0.012270,0.000000,0.287169,8.912037,68.890933
2.761839,271.721380,197.068812,-0.007924,0.014226,0.000000,0.297689,8.970328,68.745009
2.802737,279.787434,199.900840,-0.007978,0.015044,-0.000000,0.311808,9.039346,68.592733
2.843635,287.968218,202.726924,-0.006839,0.014586,-0.000000,0.329597,9.106878,68.435608
2.884533,296.263471,205.546849,-0.004754,0.012968,-0.000000,0.350370,9.160778,68.275161
2.935357,306.731191,209.042299,-0.001516,0.009884,0.000000,0.378359,9.194516,68.072062
2.986182,317.374749,212.527526,0.001446,0.006586,0.000000,0.405713,9.184331,67.866669
3.026615,325.967489,215.292675,0.002998,0.004521,0.000000,0.425383,9.145675,67.702168
3.034702,327.699328,215.844887,0.003203,0.004204,0.000000,0.430306,9.127209,67.669718
3.042788,329.435592,216.396821,0.003300,0.003975,0.000000,0.436417,9.099987,67.637832
3.050875,331.176279,216.948472,0.003224,0.003881,0.000000,0.442371,9.072414,67.605750
3.058962,332.921387,217.499841,0.002954,0.003940,0.000000,0.448123,9.044879,67.573572
3.067048,334.670914,218.050924,0.002497,0.004149,0.000000,0.453624,9.017756,67.541017
3.083222,338.183216,219.152231,0.001039,0.005005,0.000000,0.463708,8.966298,67.475229
3.099395,341.713169,220.252383,-0.001032,0.006369,0.000000,0.472321,8.920927,67.408183
3.115568,345.260753,221.351368,-0.003622,0.008178,0.000000,0.479229,8.884115,67.339219
3.131742,348.825952,222.449173,-0.006632,0.010363,0.000000,0.484272,8.858052,67.268371
3.157032,354.436060,224.163405,-0.011895,0.014320,0.000000,0.488227,8.842841,67.153321
3.182322,360.089118,225.874662,-0.017384,0.018593,0.000000,0.487384,8.862313,67.030786
3.207612,365.785047,227.582884,-0.022549,0.022750,0.000000,0.482258,8.917467,66.902369
3.232902,371.523767,229.288015,-0.026872,0.026370,0.000000,0.473770,9.005353,66.768065
3.258192,377.305190,230.990006,-0.029930,0.029095,0.000000,0.463174,9.119741,66.628657
3.289616,384.548322,233.100372,-0.031553,0.030852,0.000000,0.449278,9.284888,66.448961
3.321041,391.857071,235.205672,-0.030601,0.030601,0.000000,0.437321,9.455486,66.263896
3.352465,399.231256,237.305816,-0.027327,0.028456,0.000000,0.429893,9.609966,66.080369
3.383890,406.670699,239.401152,-0.022374,0.024854,-0.000000,0.428898,9.732609,65.926904
3.415314,414.175241,241.492112,-0.016658,0.020468,0.000000,0.434821,9.807117,65.777782
3.446738,421.744738,243.578840,-0.011199,0.016089,0.000000,0.447107,9.829318,65.634893
3.478163,429.379050,245.661228,-0.006952,0.012490,0.000000,0.464048,9.804072,65.496911
3.509587,437.078041,247.739156,-0.004637,0.010291,0.000000,0.483092,9.744801,65.361334
3.541012,444.841577,249.812589,-0.004602,0.009841,0.000000,0.501335,9.671173,65.225930
3.572436,452.669523,251.881531,-0.006756,0.011148,0.000000,0.516051,9.605223,65.088374
3.603860,460.561741,253.945948,-0.010588,0.013884,0.000000,0.525230,9.566993,64.945702
3.635285,468.518093,256.005756,-0.015269,0.017445,0.000000,0.527984,9.570669,64.795506
3.670500,477.510165,258.308443,-0.020326,0.021495,0.000000,0.523981,9.631176,64.618490
3.699503,484.976408,260.200500,-0.023456,0.024160,0.000000,0.516685,9.720894,64.466153
3.728507,492.496880,262.088457,-0.025083,0.025728,0.000000,0.507909,9.834970,64.308235
3.757511,500.071449,263.972259,-0.024979,0.025965,0.000000,0.499906,9.958051,64.147914
3.786514,507.699980,265.851866,-0.023248,0.024891,0.000000,0.494739,10.073225,63.987524
3.815518,515.382337,267.727249,-0.020291,0.022771,0.000000,0.493881,10.165274,63.828518
3.844522,523.118389,269.598379,-0.016727,0.020055,0.000000,0.497952,10.223850,63.672414
3.877501,531.979815,271.719840,-0.012843,0.016939,0.000000,0.507646,10.236289,63.435928
3.910480,540.910235,273.833049,-0.010061,0.014547,0.000000,0.520938,10.200414,63.158529
3.943458,549.909357,275.936763,-0.009020,0.013440,0.000000,0.535202,10.138808,62.880265
3.976437,558.976868,278.030795,-0.009874,0.013818,0.000000,0.547362,10.073818,62.598093
4.009416,568.112454,280.115343,-0.012266,0.015477,0.000000,0.555007,10.027387,62.308120
4.042395,577.315802,282.190353,-0.015450,0.017883,0.000000,0.557030,10.015428,62.009188
4.081033,588.184022,284.608891,-0.018960,0.020713,-0.000000,0.552878,10.052104,61.645543
4.110671,596.583244,286.454600,-0.020694,0.022238,0.000000,0.546843,10.110393,61.357996
4.140309,605.036364,288.291959,-0.021217,0.022858,0.000000,0.540513,10.181844,61.065164
4.169947,613.543119,290.120939,-0.020517,0.022509,-0.000000,0.535798,10.251520,60.768129
4.199585,622.103251,291.941449,-0.018850,0.021348,-0.000000,0.534082,10.306144,60.469737
4.229223,630.716504,293.753366,-0.016664,0.019698,-0.000000,0.535958,10.336422,60.171585
4.258861,639.382614,295.556579,-0.014492,0.017968,-0.000000,0.541183,10.338696,59.873351
4.288499,648.101318,297.351009,-0.012832,0.016561,-0.000000,0.548773,10.315782,59.575626
4.318138,656.872353,299.136578,-0.012038,0.015784,-0.000000,0.557192,10.275886,59.276691
4.347776,665.695456,300.913196,-0.012237,0.015777,-0.000000,0.564755,10.230942,58.975232
4.377414,674.570365,302.680755,-0.013305,0.016482,0.000000,0.570036,10.193224,58.669352
4.407052,683.496816,304.439455,-0.014910,0.017668,0.000000,0.572453,10.175889,58.381144
4.436690,692.474549,306.189863,-0.016608,0.019000,0.000000,0.572040,10.183475,58.110071
4.466328,701.503285,307.930453,-0.017959,0.020124,0.000000,0.568047,10.187210,57.687104
4.495966,710.582716,309.658221,-0.018653,0.020773,0.000000,0.562722,10.197499,57.207126
4.525604,719.712416,311.369909,-0.018577,0.020832,0.000000,0.556878,10.194237,56.616097
4.555242,728.891848,313.063326,-0.017821,0.020341,-0.000000,0.552259,10.177495,55.982632
4.584880,738.120425,314.737222,-0.016635,0.019473,-0.000000,0.549500,10.138520,55.301566
4.614518,747.397565,316.390881,-0.015358,0.018479,-0.000000,0.548933,10.079011,54.608179
4.644157,756.722681,318.023948,-0.014327,0.017626,-0.000000,0.550057,10.001896,53.914915
4.673795,766.095167,319.636312,-0.013792,0.017124,-0.000000,0.551831,9.912358,53.221284
4.703433,775.514405,321.227945,-0.013852,0.017078,-0.000000,0.553091,9.818207,52.526420
4.733071,784.979778,322.798809,-0.014442,0.017461,-0.000000,0.552873,9.727634,51.829279
4.762709,794.490678,324.348838,-0.015353,0.018131,-0.000000,0.550659,9.646966,51.129210
4.792347,804.046492,325.877976,-0.016307,0.018878,-0.000000,0.546485,9.578982,50.426002
4.827106,815.309862,327.644601,-0.016609,0.019706,-0.000000,0.501898,9.534233,49.591108
4.861866,826.633149,329.382257,-0.015188,0.020411,-0.000000,0.462819,9.493741,48.754073
4.867655,828.524897,329.668860,-0.014760,0.020516,-0.000000,0.458852,9.485520,48.614811
4.873445,830.418274,329.954659,-0.014298,0.020613,-0.000000,0.455798,9.476666,48.475642
4.879234,832.313275,330.239653,-0.013811,0.020700,-0.000000,0.453675,9.467137,48.336578
4.885024,834.209897,330.523842,-0.013304,0.020775,-0.000000,0.452496,9.456880,48.197611
4.890813,836.108135,330.807227,-0.012783,0.020840,-0.000000,0.452267,9.445854,48.058770
4.902392,839.909437,331.371584,-0.011724,0.020931,-0.000000,0.454622,9.421368,47.781428
4.913971,843.717146,331.932725,-0.010679,0.020972,-0.000000,0.460578,9.393515,47.504626
4.925550,847.531224,332.490651,-0.009695,0.020964,-0.000000,0.469829,9.362281,47.228406
4.937129,851.351634,333.045364,-0.008815,0.020907,-0.000000,0.481925,9.327784,46.952714
4.965546,860.754263,334.393128,-0.007296,0.020592,-0.000000,0.519884,9.231342,46.278349
4.993963,870.194263,335.721577,-0.006945,0.020111,-0.000000,0.561570,9.123501,45.606491
5.022380,879.671092,337.030738,-0.007781,0.019604,-0.000000,0.596131,9.013533,44.936037
5.046010,887.579203,338.104706,-0.009165,0.019269,-0.000000,0.612962,8.927380,44.378613
5.069640,895.512096,339.165373,-0.010846,0.019076,-0.000000,0.616530,8.850198,43.820694
5.093270,903.469457,340.212757,-0.012467,0.019053,-0.000000,0.607436,8.783719,43.262198
5.116901,911.450975,341.246880,-0.013715,0.019192,-0.000000,0.588693,8.727424,42.703690
5.140531,919.456338,342.267771,-0.014374,0.019454,-0.000000,0.564947,8.678657,42.145295
5.169918,929.444880,343.518949,-0.014261,0.019862,-0.000000,0.536145,8.622379,41.450569
5.199305,939.469219,344.749725,-0.013234,0.020240,0.000000,0.516543,8.563268,40.758195
5.199893,939.670073,344.774129,-0.013206,0.020247,0.000000,0.516305,8.561990,40.744381
5.199916,939.677995,344.775091,-0.013205,0.020247,0.000000,0.516296,8.561942,40.743849
5.199939,939.685918,344.776054,-0.013204,0.020247,0.000000,0.516287,8.561891,40.743304
5.199986,939.701762,344.777979,-0.013202,0.020248,0.000000,0.516268,8.561790,40.742209
5.200018,939.712886,344.776640,-0.013200,0.020248,0.000000,-0.417922,-5.338268,-40.794681
5.200046,939.722207,344.775517,-0.013199,0.020248,0.000000,-0.417931,-5.338185,-40.794168
5.200073,939.731528,344.774395,-0.013198,0.020249,0.000000,-0.417939,-5.338101,-40.793656
5.200346,939.824739,344.763174,-0.013185,0.020252,0.000000,-0.418023,-5.337267,-40.788527
5.200618,939.917947,344.751954,-0.013172,0.020255,0.000000,-0.418105,-5.336433,-40.783399
5.200891,940.011151,344.740736,-0.013159,0.020258,0.000000,-0.418186,-5.335601,-40.778273
5.203619,940.943030,344.628629,-0.013028,0.020288,0.000000,-0.418939,-5.327324,-40.727064
5.206346,941.874606,344.516663,-0.012894,0.020316,0.000000,-0.419581,-5.319139,-40.675960
5.209074,942.805879,344.404839,-0.012756,0.020343,0.000000,-0.420111,-5.311048,-40.624959
5.225900,948.544125,343.718100,-0.011864,0.020475,0.000000,-0.420933,-5.263367,-40.312572
5.242726,954.270958,343.036642,-0.010958,0.020544,0.000000,-0.417735,-5.219627,-40.003950
5.259552,959.986464,342.360394,-0.010127,0.020550,0.000000,-0.411043,-5.179811,-39.699004
5.268213,962.923776,342.014347,-0.009752,0.020528,0.000000,-0.406459,-5.160767,-39.543470
5.276873,965.858121,341.669654,-0.009426,0.020493,0.000000,-0.401287,-5.142612,-39.388898
5.285533,968.789513,341.326303,-0.009158,0.020444,0.000000,-0.395681,-5.125249,-39.235293
5.299403,973.478157,340.779183,-0.008860,0.020343,0.000000,-0.386222,-5.098783,-38.991321
5.313273,978.159300,340.235449,-0.008734,0.020223,0.000000,-0.376689,-5.073552,-38.749881
5.327142,982.832989,339.695061,-0.008779,0.020093,0.000000,-0.367679,-5.049029,-38.511016
5.369529,997.070372,338.063991,-0.009794,0.019723,0.000000,-0.347752,-4.973685,-37.797339
5.411916,1011.239860,336.462811,-0.011547,0.019567,0.000000,-0.345866,-4.888968,-37.108805
5.454303,1025.342672,334.890547,-0.013014,0.019697,0.000000,-0.359614,-4.791764,-36.444954
5.496691,1039.380001,333.346252,-0.013437,0.020033,0.000000,-0.378921,-4.687050,-35.804080
5.518118,1046.451557,332.575932,-0.013201,0.020225,0.000000,-0.387067,-4.634237,-35.488075
5.539545,1053.506819,331.812418,-0.012704,0.020399,0.000000,-0.392368,-4.583227,-35.176986
5.560972,1060.545930,331.055602,-0.012053,0.020530,0.000000,-0.394014,-4.535244,-34.870491
5.591357,1070.500268,329.993677,-0.011089,0.020618,0.000000,-0.390186,-4.473360,-34.443345
5.621742,1080.422805,328.944723,-0.010298,0.020594,0.000000,-0.380595,-4.418465,-34.024713
5.652127,1090.313928,327.908462,-0.009881,0.020481,0.000000,-0.368113,-4.368996,-33.614537
5.661912,1093.492785,327.577391,-0.009845,0.020431,0.000000,-0.363918,-4.353918,-33.484240
5.671698,1096.668437,327.247599,-0.009857,0.020378,0.000000,-0.359841,-4.339075,-33.354835
5.681484,1099.840894,326.919078,-0.009918,0.020324,0.000000,-0.356025,-4.324348,-33.226330
5.713350,1110.149820,325.857942,-0.010382,0.020169,0.000000,-0.346590,-4.275800,-32.814230
5.745216,1120.425423,324.809880,-0.011113,0.020075,0.000000,-0.342544,-4.224929,-32.411902
5.777082,1130.668110,323.774593,-0.011882,0.020069,0.000000,-0.343924,-4.170566,-32.019272
5.791378,1135.252534,323.314232,-0.012189,0.020097,0.000000,-0.346070,-4.145005,-31.846226
5.805673,1139.830449,322.856358,-0.012446,0.020141,0.000000,-0.348895,-4.118812,-31.675048
5.819969,1144.401891,322.400947,-0.012636,0.020200,0.000000,-0.352153,-4.092123,-31.505691
5.831277,1148.013385,322.042440,-0.012732,0.020255,0.000000,-0.354869,-4.070779,-31.372986
5.842585,1151.620867,321.685448,-0.012780,0.020314,0.000000,-0.357560,-4.049347,-31.241359
5.853893,1155.224355,321.329956,-0.012778,0.020377,0.000000,-0.360100,-4.027937,-31.110781
5.906994,1172.093052,319.680354,-0.012247,0.020652,0.000000,-0.367573,-3.930394,-30.510843
5.960095,1188.875728,318.062435,-0.011274,0.020781,0.000000,-0.363539,-3.843351,-29.930939
6.013196,1205.574003,316.475113,-0.010634,0.020725,0.000000,-0.350786,-3.767914,-29.369758
6.066298,1222.189458,314.917348,-0.010820,0.020569,0.000000,-0.337375,-3.699235,-28.827081
6.080902,1226.744754,314.493974,-0.010999,0.020530,0.000000,-0.334683,-3.680464,-28.681135
6.095506,1231.293932,314.072739,-0.011217,0.020500,0.000000,-0.332817,-3.661320,-28.536653
6.110110,1235.837024,313.653623,-0.011456,0.020482,0.000000,-0.331717,-3.641771,-28.393624
6.119139,1238.642862,313.395546,-0.011608,0.020477,0.000000,-0.331420,-3.629453,-28.305918
6.128168,1241.446392,313.138267,-0.011760,0.020477,0.000000,-0.331401,-3.616949,-28.218763
6.167201,1253.539755,312.035044,-0.012297,0.020526,0.000000,-0.333471,-3.561172,-27.848151
6.206235,1265.590737,310.946232,-0.012583,0.020638,0.000000,-0.337562,-3.503572,-27.487174
6.235701,1274.660052,310.133675,-0.012611,0.020747,0.000000,-0.340774,-3.459813,-27.220730
6.265166,1283.705716,309.328652,-0.012476,0.020854,0.000000,-0.343280,-3.420248,-26.976828
6.294632,1292.727948,308.530782,-0.012217,0.020942,0.000000,-0.344223,-3.383335,-26.743298
6.332202,1304.197790,307.523651,-0.011789,0.021016,0.000000,-0.342674,-3.338934,-26.450964
6.362755,1313.498013,306.712690,-0.011286,0.020835,0.000000,-0.337267,-3.272215,-26.224496
6.367466,1314.929870,306.588269,-0.011168,0.020748,0.000000,-0.335815,-3.253855,-26.191640
